Freq.,T,R,V
2.0027262241795114,382.6074682062868,340.0005984997299,378.2669268611141
2.0132117017930167,1161.791518906252,1165.9880662564105,1153.2247908466654
2.023697179406522,2050.975113130193,2001.5853897607294,2024.964863826784
2.034182657020027,2756.863216600224,2789.022611815202,2882.7436096978363
2.0446681346335325,3627.137496411643,3575.4855075582377,3700.7956788001648
2.0551536122470377,4413.647184393848,4319.177916500974,4484.939424412187
2.065639089860543,5141.547821623395,5070.149266771193,5245.642763682367
2.0761245674740483,5929.406125572858,5897.9292662248245,6026.587446147643
2.0866100450875535,6645.922611911528,6552.2405707319895,6766.493030878159
2.097095522701059,7342.34522790299,7322.18782441313,7546.824840703509
2.1075810003145645,8059.106112395485,8059.48712899312,8246.70096027483
2.11806647792807,8766.682347762839,8729.946611830412,8959.147184543961
2.128551955541575,9494.68017833237,9405.17634797707,9680.237599580783
2.1390374331550803,10104.528226219652,10043.297918435785,10371.286248292508
2.1495229107685856,10745.78076224503,10659.483318389646,10960.545683132828
2.160008388382091,11368.720357280135,11300.37642177367,11642.30988838671
2.170493865995596,12023.40375451518,11923.767318172237,12251.495249335729
2.1809793436091014,12564.329241052636,12549.160398782995,12861.93022090948
2.1914648212226067,13147.671891522847,13070.559301002184,13484.104793230616
2.201950298836112,13665.449565377741,13665.3326007806,14031.315495640052
2.212435776449617,14191.554547420756,14155.72407744923,14589.763498427625
2.2229212540631225,14686.953834821294,14712.062890656718,15153.04523719221
2.2334067316766277,15225.531633913475,15114.376974795148,15562.977544818597
2.243892209290133,15653.934745959346,15631.43106964236,16083.199022493756
2.2543776869036383,16101.856650762937,16026.599892528238,16523.71204467914
2.264863164517144,16560.159871860855,16495.86012269457,16905.436527638853
2.2753486421306492,16954.154904790048,16853.873518953307,17376.328280896043
2.2858341197441545,17252.814824865804,17246.565251730324,17796.346590851048
2.29631959735766,17677.730314222576,17577.167732037266,18138.47028202476
2.306805074971165,18028.262623698964,17919.118895578213,18458.10411805904
2.3172905525846703,18325.42233899524,18237.993413462285,18808.379778431852
2.3277760301981756,18600.38229065162,18565.951802543157,19074.61917660981
2.338261507811681,18878.121958829306,18823.654678567058,19348.476443199823
2.348746985425186,19122.914226614175,19029.02144086181,19611.873799671248
2.3592324630386914,19401.800019924056,19311.640349166777,19818.575431633686
2.3697179406521967,19574.44234900593,19495.17829519444,20077.97260291239
2.380203418265702,19753.095862444065,19692.199594786456,20262.600482774626
2.390688895879207,19841.85429720578,19802.77428937935,20373.295287401954
2.4011743734927125,20003.971624846,19962.204420757418,20512.183771383265
2.4116598511062177,20139.88796188171,20058.770073906973,20654.055466236845
2.422145328719723,20255.403583221476,20165.864888497013,20686.45972419487
2.4326308063332283,20270.87290354621,20156.762067950065,20777.99644692084
2.443116283946734,20310.285828563312,20229.283910095888,20893.38462321725
2.4536017615602392,20370.15604378299,20243.36907550654,20864.112522245876
2.4640872391737445,20278.384698084617,20263.208952898367,20826.988273763942
2.4745727167872498,20283.883285557895,20240.71991194405,20737.3830997597
2.485058194400755,20254.164143448732,20195.99829369386,20721.285014035162
2.4955436720142603,20204.185399659087,20089.35845899265,20707.256443067276
2.5060291496277656,20065.971223455053,20011.30956503623,20595.8416861814
2.516514627241271,19979.523687201705,19872.482867172323,20444.96208479093
2.527000104854776,19829.6683538697,19842.78088222712,20394.913995637788
2.5374855824682814,19772.657691854194,19657.71081326612,20160.546687810478
2.5479710600817866,19550.21388454711,19480.013131775322,20002.713019694205
2.558456537695292,19332.938015897733,19222.286663821622,19819.24846410922
2.568942015308797,19115.263113985475,19015.488473199086,19597.501071743554
2.5794274929223024,18835.80730782976,18831.187892287468,19349.91896856703
2.5899129705358077,18595.758153463947,18556.05371665164,19130.465511329716
2.6003984481493134,18376.460678195235,18292.618201147186,18822.824210771658
2.6108839257628187,18116.667600836605,18001.784701847537,18497.380958361904
2.621369403376324,17761.945611367835,17670.91949633164,18177.881589105167
2.6318548809898292,17477.842713143553,17420.5699191503,17911.243700517378
2.6423403586033345,17112.255159877906,17093.45195632653,17562.722862233288
2.6528258362168398,16764.506812870663,16699.539899608546,17171.52404074464
2.663311313830345,16392.23201255096,16323.089357801082,16798.84924262592
2.6737967914438503,16032.444265090304,16016.442450305025,16471.2349847164
2.6842822690573556,15655.580386382704,15562.29398320221,15959.537472961105
2.694767746670861,15204.707178055585,15184.386148188772,15574.587225170662
2.705253224284366,14770.478387468089,14756.433297596985,15118.3945675461
2.7157387018978714,14365.753816683859,14346.230349208388,14756.623964294577
2.7262241795113766,13873.565759991483,13871.463828843582,14232.218722699985
2.736709657124882,13416.47856982369,13364.123198404584,13749.697366475826
2.747195134738387,12966.415258503952,12946.784307810385,13308.338934367823
2.7576806123518924,12478.594564140602,12440.205605874105,12765.739241214986
2.7681660899653977,11968.812166836058,11951.335280185122,12287.282646832693
2.7786515675789034,11533.758515435446,11482.424132906212,11740.22885214391
2.7891370451924087,11028.148735341965,10963.830835266559,11274.674407652234
2.799622522805914,10475.509431204815,10368.67974466097,10696.168959899653
2.810108000419419,9955.070969892398,9915.929467386557,10182.963173992584
2.8205934780329245,9448.096804379611,9360.00457918301,9704.024630366115
2.8310789556464298,8913.116627236639,8795.802124883787,9076.65911956004
2.841564433259935,8331.283775572294,8293.54223202537,8542.537213683645
2.8520499108734403,7774.58292625776,7773.452206360549,7976.824825355775
2.8625353884869456,7208.740820345691,7190.731227897855,7403.662084895207
2.873020866100451,6661.8481984575765,6611.070571853872,6823.438790743161
2.883506343713956,6099.504242268242,6117.521599719126,6216.341709877751
2.8939918213274614,5564.355533111279,5546.8898235164015,5698.833604281904
2.9044772989409666,4994.126159987542,4966.964188844627,5080.22993060015
2.914962776554472,4412.400240022945,4388.205377934438,4533.659137233252
2.925448254167977,3860.7370347242104,3818.461139244714,3912.9634075343447
2.935933731781483,3334.246955246166,3243.611517567928,3417.3825683429372
2.946419209394988,2734.8998054909857,2694.551885689042,2807.490391716681
2.9569046870084934,2138.685666040616,2184.067355959518,2210.6271840978106
2.9673901646219987,1590.5510910475505,1581.4096516789255,1608.8612179245106
2.977875642235504,991.9825660362765,1043.3561956943847,1018.6936489907318
2.988361119849009,447.3487036061883,496.0025169769724,488.8913319451062
2.9988465974625145,161.10116142331879,75.06375172707395,124.34647788642359
3.0093320750760197,663.8548189331461,648.5165145861297,662.5197653387804
3.019817552689525,1129.5394685292824,1203.861405127934,1230.5657709581412
3.0303030303030303,1774.863445826464,1711.9712587284998,1739.1741610940549
3.0407885079165355,2257.2268839053245,2259.3798365397356,2294.9791817128894
3.051273985530041,2815.368879812963,2773.721617869201,2831.7974474092575
3.061759463143546,3304.503212472943,3317.4248671897376,3384.537879288708
3.0722449407570513,3860.786059906013,3819.2804714861995,3931.6415144964567
3.0827304183705566,4353.419729281255,4337.09705980133,4462.9451885826165
3.093215895984062,4765.086261867687,4804.424848162535,4950.721440110187
3.103701373597567,5308.252597961564,5301.864355503667,5445.059877421608
3.114186851211073,5797.682268595869,5781.395750830941,5948.390013855107
3.124672328824578,6281.543744641617,6280.125082138219,6436.683887130432
3.1351578064380834,6698.446241928098,6729.697374267226,6922.12979260282
3.1456432840515887,7171.060205567195,7165.768035259181,7376.845739781986
3.156128761665094,7602.567080750283,7630.452068766637,7808.177358545767
3.166614239278599,8069.037395488655,8041.6246667749565,8255.877103907183
3.1770997168921045,8481.034600500308,8479.245786081621,8701.189208850956
3.1875851945056097,8926.714711758774,8819.89006678504,9151.900542345558
3.198070672119115,9297.634292343273,9282.464605860881,9541.062856747218
3.2085561497326203,9680.736434948161,9604.216443831949,9936.079027701117
3.2190416273461255,10071.27033374943,9991.174411156504,10258.279825072075
3.229527104959631,10401.457869193948,10350.426651078042,10659.350920399082
3.240012582573136,10703.96564402789,10719.885312556744,11074.416048078634
3.2504980601866413,11070.071986804473,11088.306384394158,11340.694216077665
3.2609835378001466,11359.278262574917,11345.404990933675,11722.359671775195
3.2714690154136523,11702.524212712426,11654.702502327362,11987.576731381103
3.2819544930271576,11983.023705884338,11902.730356206797,12258.651424173524
3.292439970640663,12275.938366505135,12190.88700648904,12567.226137392969
3.302925448254168,12459.230794703619,12447.220689108986,12817.94165795615
3.3134109258676734,12739.369722659663,12710.361984542056,13026.15435219932
3.3238964034811787,12938.114255476075,12920.408607611029,13280.216696929125
3.334381881094684,13153.530172640105,13135.137470314357,13486.063461063864
3.344867358708189,13339.989613669519,13355.856726963699,13665.98397788198
3.3553528363216945,13539.91299949709,13477.349893702914,13871.254816791918
3.3658383139351997,13696.176481835775,13714.959319237145,14058.56987488136
3.376323791548705,13839.98083786381,13785.30095995527,14220.402374986514
3.3868092691622103,13959.226492455715,13982.516519331428,14334.640746709725
3.3972947467757155,14062.365814427862,14041.242072073377,14478.04220478831
3.407780224389221,14208.222240459709,14174.013866433566,14559.31435702159
3.418265702002726,14268.825767895854,14250.739641863602,14673.48912578979
3.4287511796162313,14296.438796331458,14356.215006523656,14619.639478421892
3.4392366572297366,14398.146336514787,14351.92469327708,14748.56661997008
3.4497221348432423,14469.8260679295,14389.141023126562,14795.418047282019
3.4602076124567476,14462.403400996442,14409.015465457642,14807.263934585126
3.470693090070253,14458.988519587549,14402.574660011873,14811.880847775226
3.481178567683758,14511.686567349703,14395.06959323214,14819.48710719163
3.4916640452972634,14460.568568599581,14358.746144546583,14747.667156661359
3.5021495229107686,14328.157796333395,14309.394524030524,14685.217719579614
3.512635000524274,14322.540633623017,14243.388750285696,14641.935058532896
3.523120478137779,14218.485911052394,14236.59393276887,14684.764280220961
3.5336059557512844,14144.338233578419,14110.5424683464,14538.245272292048
3.5440914333647897,14011.37122531948,14023.805488571254,14443.88029964709
3.554576910978295,13940.169102487444,13894.294559421774,14331.381443128319
3.5650623885918002,13741.575407142302,13722.25165817003,14125.852246909368
3.5755478662053055,13623.316272629761,13569.926456656627,13983.97770681862
3.586033343818811,13464.221408119889,13441.24874860871,13830.239703877478
3.596518821432316,13322.539341126925,13304.673184178322,13634.19131942752
3.6070042990458218,13141.708652539462,13140.644942594157,13475.208037186227
3.617489776659327,12905.845511965861,12858.56063206624,13277.711847666882
3.6279752542728323,12678.263746808603,12649.580723850499,13103.677611756975
3.6384607318863376,12527.033881417212,12441.446668792649,12785.127199752369
3.648946209499843,12267.991103415885,12190.315175307982,12550.72829443217
3.659431687113348,12018.991379682771,11970.778500959657,12335.897289317241
3.6699171647268534,11755.75255396136,11688.578551490147,12019.301265066737
3.6804026423403586,11459.305015833821,11399.33716005836,11747.335561160528
3.690888119953864,11190.170002344825,11167.198518263196,11488.609605294134
3.701373597567369,10892.452024663024,10871.256553407255,11125.484027190312
3.7118590751808744,10594.196474720118,10532.645749557189,10825.033870341465
3.7223445527943797,10268.106682373342,10240.064726379487,10459.03947286052
3.732830030407885,9927.964573801992,9932.029332882961,10188.633010765227
3.7433155080213902,9595.399339232972,9516.749776901022,9835.610635295683
3.7538009856348955,9242.879239113385,9233.880748736321,9536.926329304773
3.7642864632484008,8922.13050581199,8895.104260365017,9148.644690437235
3.774771940861906,8553.558272183323,8516.93125594387,8783.817892213168
3.7852574184754118,8138.392619593178,8166.105643545656,8401.265583263743
3.795742896088917,7801.447319301851,7819.514971739214,8020.264755234914
3.8062283737024223,7433.525034047562,7425.6643129583,7590.406115913857
3.8167138513159276,7075.597796893457,7008.238339166118,7255.372708236262
3.827199328929433,6704.936245767794,6647.730164488189,6866.040562173899
3.837684806542938,6301.237617612671,6262.494212832801,6424.175703143459
3.8481702841564434,5866.333572281004,5874.4528305579215,6056.491488240949
3.8586557617699486,5500.205206781945,5423.684258591217,5607.097582188249
3.869141239383454,5109.727378050576,5019.693370689569,5202.9332920615
3.879626716996959,4665.193373595823,4631.240478470724,4752.554141313963
3.8901121946104644,4254.669847813003,4242.58494088384,4345.612671479218
3.9005976722239697,3833.596609525372,3775.342195501535,3895.162207479411
3.911083149837475,3419.0888519092186,3420.9298819220016,3507.6584144594576
3.9215686274509802,3003.324457830233,2965.7562706110884,3030.8836381052106
3.9320541050644855,2619.948473740522,2602.120953880912,2636.3352819588013
3.942539582677991,2112.472497867947,2094.4563558878986,2212.365308431653
3.9530250602914965,1725.4950667700996,1759.1934419384231,1807.2068103699946
3.9635105379050017,1298.4778661559994,1298.943039158437,1361.9551319207085
3.973996015518507,855.8315427638207,905.8005867868787,934.0520922695862
3.9844814931320123,460.70902648603453,412.38215858067264,491.5739714469433
3.9949669707455175,28.737834535408375,61.343728886359905,35.587605908206044
4.005452448359023,363.0259959168907,352.46848122821183,365.79222388663914
4.015937925972528,776.3838487139011,844.8745138389371,810.3375722478512
4.026423403586033,1154.9242409307012,1192.6779948430194,1205.489257820596
4.036908881199539,1596.1405534528838,1596.7847187376708,1644.3018942111344
4.047394358813044,2010.549641417176,1997.8328529995279,2089.3399076825935
4.057879836426549,2345.6569007698513,2373.4971907063814,2478.2346686268725
4.068365314040054,2780.8075458486164,2719.6647216723863,2839.0453608717808
4.07885079165356,3223.7012635765564,3185.766534591271,3259.9972170125748
4.089336269267065,3531.8815113627097,3610.3403430910994,3615.8153388185046
4.09982174688057,3967.3765946587373,3968.2734173440213,3990.3893751878186
4.1103072244940755,4319.724942852322,4275.015026677498,4407.2778500932845
4.120792702107581,4622.526323078484,4657.927028469549,4767.9978825676635
4.131278179721086,5028.608924199376,5068.481693985906,5170.624526547706
4.141763657334591,5407.8583799456965,5328.156869334807,5494.531394804382
4.1522491349480966,5716.043429532489,5677.242965318249,5860.061878361118
4.162734612561602,6044.303393714295,5992.663998811761,6173.977274697984
4.173220090175107,6346.880634437506,6355.322561263769,6505.111856438548
4.183705567788612,6647.411723469311,6637.154335183513,6861.665563132973
4.194191045402118,7053.50337798924,6969.252602360391,7222.333588528737
4.204676523015624,7292.971827613772,7270.541676739706,7507.116921897858
4.215162000629129,7626.26292030731,7567.78772383521,7822.256041414405
4.225647478242634,7857.97894307082,7863.685667521753,8078.503817628384
4.23613295585614,8154.941563620539,8122.839884520952,8362.81786978917
4.246618433469645,8400.796909656796,8393.497754926108,8630.740458313903
4.25710391108315,8697.605377671156,8585.800922378941,8910.17724790107
4.267589388696655,8880.843933115879,8855.59084038318,9127.244311844035
4.278074866310161,9115.610652345264,9092.844767857237,9407.341435935183
4.288560343923666,9297.707778364287,9318.240188424774,9615.013596395189
4.299045821537171,9508.100570994804,9494.427103869804,9752.003294362697
4.3095312991506765,9718.162154903786,9695.244979718782,9927.503045881687
4.320016776764182,9887.574752058279,9895.804135185894,10228.434880060933
4.330502254377687,10149.773522913323,10091.194037557372,10346.450744433536
4.340987731991192,10221.98959659508,10209.330109807854,10489.946557913674
4.3514732096046975,10416.112100878165,10321.263807893474,10677.603701610498
4.361958687218203,10537.321314543133,10530.065872692525,10816.171628456892
4.372444164831708,10626.249963582952,10581.209114772802,10930.172109374129
4.382929642445213,10815.076386664314,10765.395766157666,11097.866725878273
4.393415120058719,10936.941449252707,10835.149273077892,11155.018821611764
4.403900597672224,11027.92366292611,10905.440050565536,11261.817377207173
4.414386075285729,11022.737678169862,10997.235533931,11295.715531374923
4.424871552899234,11100.531517214496,11089.142770278198,11367.809383844999
4.43535703051274,11199.889962694204,11061.08509076853,11423.38001169368
4.445842508126245,11208.144742795517,11198.198374509644,11474.788371594534
4.45632798573975,11206.048421955686,11189.289751051349,11459.570763306907
4.4668134633532555,11212.832493531929,11177.276506281629,11547.565406197535
4.477298940966761,11255.97778562466,11219.665600805554,11544.98776496339
4.487784418580266,11221.487688790668,11158.039300664472,11501.271678819516
4.498269896193771,11174.255150917395,11120.839790964124,11503.475346943571
4.5087553738072765,11197.281799955248,11127.960923851202,11457.251957709299
4.519240851420782,11139.851883621797,11135.532678046646,11401.061754508626
4.529726329034288,11014.215691786287,10994.47961417773,11350.30439952907
4.540211806647793,11015.442345849195,10955.9734792682,11235.058479902897
4.5506972842612985,10862.20558225517,10886.73285993216,11181.688858077147
4.561182761874804,10793.303259813842,10730.724583799962,11084.156678843057
4.571668239488309,10693.372657957434,10670.016019884368,11021.176053974508
4.582153717101814,10586.082499529426,10543.242645388951,10845.245499965476
4.59263919471532,10527.149314691773,10438.769320241188,10700.823170784888
4.603124672328825,10260.514469572923,10334.297691952857,10586.849776935462
4.61361014994233,10173.487313660356,10155.084085552004,10430.049527606458
4.624095627555835,10046.070376033003,9993.086861525735,10298.893273515167
4.634581105169341,9812.072202297832,9771.346033930466,10026.803787638644
4.645066582782846,9655.540956027678,9654.241136682373,9948.199840656982
4.655552060396351,9501.044944612568,9468.901912735564,9721.577939485343
4.666037538009856,9276.607263815662,9229.104796910377,9528.756241491497
4.676523015623362,9074.64719063152,9058.034969742916,9343.68977298474
4.687008493236867,8850.934484021014,8847.164741360913,9089.066484934012
4.697493970850372,8612.090579272535,8607.166060078358,8803.59388032802
4.7079794484638775,8394.404573604827,8410.507579401523,8659.455493096191
4.718464926077383,8157.687805790671,8132.754705745461,8347.775902447429
4.728950403690888,7915.767475053199,7878.339599885765,8111.935750081115
4.739435881304393,7645.468573875967,7646.596462054477,7865.611312494372
4.749921358917899,7372.992288349154,7360.898721757107,7550.121810897832
4.760406836531404,7081.291069308206,7096.776190832036,7253.078026363477
4.770892314144909,6852.896711792507,6797.207157798685,7028.905930279437
4.781377791758414,6525.834411328713,6568.492964070024,6692.63430266697
4.79186326937192,6293.971476738986,6218.450901133531,6421.533757724095
4.802348746985425,5976.009019431257,5935.037785194334,6108.711539070739
4.81283422459893,5657.634671171667,5711.450928042543,5820.7246570863235
4.8233197022124354,5399.660560006813,5341.249858085418,5512.603428670309
4.833805179825941,5020.208498100569,5007.456370107717,5173.460230463944
