Freq.,T,R,V
2.0007332530246686,219.6996853961061,204.68501209527616,208.25925819055905
2.011208296234222,982.4796093827482,1033.84729767726,1089.0941458896634
2.021683339443775,1814.3759691676562,1829.561734350229,1977.8332073045644
2.0321583826533285,2654.0229926991487,2727.9976486437386,2867.7813702323647
2.0426334258628818,3382.6221997087873,3495.206010707725,3705.3669698794874
2.053108469072435,4171.488887062401,4307.933866973426,4547.99272778261
2.0635835122819883,4980.966207677458,5158.155676945755,5420.687397417697
2.074058555491541,5754.053618741737,5900.844583674565,6226.705360447108
2.0845335987010944,6499.17689362174,6633.293792645745,7030.2457310868085
2.0950086419106477,7173.014822051317,7432.792814750108,7836.492315086561
2.105483685120201,7894.319391678446,8122.588528582047,8595.809201268537
2.1159587283297543,8583.748493511466,8872.276780750593,9356.883939285977
2.1264337715393076,9230.60083615001,9519.176122052402,10077.972998676192
2.136908814748861,9901.384058232616,10266.595205112431,10796.43534476055
2.147383857958414,10562.671064519427,10881.34404638143,11534.71522370539
2.1578589011679674,11184.248919161846,11546.687735751482,12147.180275504476
2.1683339443775207,11782.53118543127,12136.112063788589,12838.826222033169
2.1788089875870735,12388.440980292495,12773.793092949038,13504.572330864326
2.189284030796627,12987.316553684239,13344.405769819581,14104.944056520484
2.19975907400618,13462.684571695725,13909.509064741387,14658.204231382148
2.2102341172157334,13989.516747776546,14496.333598926913,15285.090310141162
2.2207091604252867,14532.315676226788,14974.709520498893,15850.171238853549
2.23118420363484,14997.505941396412,15463.84777713545,16379.19720356303
2.241659246844393,15469.112091506862,15973.824124635441,16864.519543703067
2.2521342900539465,15970.936591384434,16457.99646140344,17367.38179654793
2.2626093332634998,16329.502997134745,16906.86130039588,17815.455935777838
2.273084376473053,16770.346593346643,17276.866371099233,18246.732321606145
2.2835594196826063,17132.605111455487,17705.18799881169,18652.006735626885
2.294034462892159,17496.46630517665,18054.363697083678,19067.872076020543
2.3045095061017125,17891.835477806962,18352.442945889532,19413.63390063286
2.3149845493112657,18165.789490964125,18727.92767749336,19746.890539934328
2.325459592520819,18462.58914805074,19036.345497499275,20122.54084269549
2.3359346357303723,18733.208445483793,19362.266615427798,20374.987269472043
2.3464096789399256,18985.15913177147,19560.79526975518,20659.24378410348
2.356884722149479,19189.668726994507,19778.664370028448,20930.377546641328
2.367359765359032,19424.85520995424,20052.225002764888,21132.371951573496
2.3778348085685854,19618.745108599873,20218.190793955426,21389.50797120972
2.3883098517781387,19764.249161260912,20355.14653086129,21497.475405131285
2.398784894987692,19896.201092631563,20511.857954216437,21660.47422473857
2.409259938197245,20001.739340106822,20647.080375873174,21772.005018380343
2.419734981406798,20045.86628029493,20701.348222359036,21875.871385015515
2.4302100246163514,20176.40353623024,20766.691118111685,21920.34775689224
2.4406850678259047,20187.93537212329,20862.450762620872,22034.346719153928
2.451160111035458,20221.607379333265,20854.823124056315,21975.507057025367
2.4616351542450112,20231.092819867186,20832.416891560926,21970.964489916598
2.4721101974545645,20240.971333224945,20797.911101393183,22014.542190535853
2.482585240664118,20199.11698528639,20812.133182292706,21960.54193127613
2.493060283873671,20101.43299267463,20726.57181673986,21895.420643954076
2.5035353270832243,20005.475411126157,20621.234031014043,21755.681942028314
2.5140103702927776,19928.759342094632,20553.90005166403,21623.171705025532
2.5244854135023305,19775.62221399945,20395.407976884013,21612.989417330213
2.5349604567118837,19631.12425332687,20250.571547092808,21398.87368143971
2.545435499921437,19464.05585259935,20044.788542998464,21212.198478558526
2.5559105431309903,19247.752800940718,19932.01771771042,20991.330017851422
2.5663855863405436,19055.359630722953,19613.616477510703,20796.279462150556
2.576860629550097,18867.60975019724,19394.115460787798,20548.27801893172
2.58733567275965,18605.516953813894,19173.7438011527,20273.910534745763
2.5978107159692034,18393.5868286039,18916.324129552366,19948.034318327107
2.6082857591787567,18058.74739244012,18597.61126608815,19690.97876791976
2.61876080238831,17740.06919514284,18303.710156373658,19337.44222442447
2.629235845597863,17458.41910579043,18004.595356673555,18961.253489307666
2.639710888807416,17118.721595795978,17661.4638055722,18624.093097667366
2.6501859320169694,16798.43762095849,17267.82111342988,18247.00012181403
2.6606609752265227,16428.030036439042,16912.12860957927,17863.95854706648
2.671136018436076,16049.903285562033,16546.021744547306,17493.13125923831
2.6816110616456292,15628.43791360297,16090.633234329553,17027.66950968603
2.6920861048551825,15213.609729932226,15696.723290105134,16623.32112968262
2.702561148064736,14836.542379391862,15280.746390958924,16145.692481290398
2.713036191274289,14391.014382599296,14866.672879585734,15701.044438037332
2.7235112344838424,13976.922372216777,14332.883845397453,15150.036949852642
2.7339862776933956,13459.195130110844,13911.304082878238,14682.851473030525
2.7444613209029485,13018.192128716251,13441.207725404167,14194.766825001476
2.7549363641125018,12553.99569682423,12935.15731048775,13691.34323677355
2.765411407322055,12082.908512512608,12463.688276288936,13138.966689961762
2.7758864505316083,11538.928309352616,11903.113570060057,12625.24482955024
2.7863614937411616,11055.969783149092,11423.015576164818,12072.449879058973
2.796836536950715,10538.138959250877,10885.780413139863,11497.812894070983
2.807311580160268,10022.220392984142,10333.034480421276,10891.370043131794
2.8177866233698214,9526.08461008864,9757.181779801662,10409.244261030843
2.8282616665793747,8990.043183309035,9259.286089675124,9774.768577606317
2.838736709788928,8394.452373915263,8662.650525920535,9239.367498356532
2.849211752998481,7921.553615722145,8152.861918113157,8564.844000687888
2.859686796208034,7380.673140730159,7574.218744727668,8019.18839420011
2.8701618394175874,6822.349219277822,6960.894701303628,7410.262794634462
2.8806368826271407,6235.264724008441,6447.885044994988,6815.243278131434
2.891111925836694,5659.136283211864,5861.00318001623,6180.543903396891
2.9015869690462472,5116.840177796223,5254.266450736142,5576.5511245785565
2.9120620122558005,4544.972038967705,4664.327748362519,4952.60545332975
2.922537055465354,3974.3460815534313,4115.876296078466,4349.943485402131
2.933012098674907,3468.6311684381935,3551.9562097955873,3711.5640155795218
2.9434871418844604,2865.626696298311,2948.9278520234484,3104.3821433369217
2.9539621850940136,2313.3937291397137,2366.7857200686294,2469.984281428036
2.9644372283035665,1728.9185788453121,1788.8871354706619,1908.971786132876
2.9749122715131198,1214.495741252632,1193.1330918287124,1260.2115244109348
2.985387314722673,594.1933603916516,634.8504241003093,672.8143239275884
2.9958623579322263,57.92054095979378,64.24708045150014,53.34223717212109
3.0063374011417796,502.4571263014197,495.44252607382,493.4187293489354
3.016812444351333,1005.0886566692132,1050.6727367220935,1086.954544803215
3.027287487560886,1585.8749848091027,1598.8367462891927,1684.749895679594
3.0377625307704395,2143.814395418816,2149.556768536807,2284.858740245502
3.0482375739799927,2615.8964679304727,2687.9748968135864,2828.9136702921355
3.058712617189546,3114.6515646883918,3240.4221820683533,3445.760064201212
3.0691876603990993,3662.6543448075017,3752.938702334832,3984.6264459451368
3.079662703608652,4176.59392583671,4309.699466231833,4535.170509315464
3.0901377468182054,4672.6916544076885,4793.899920144406,5121.0163438452055
3.1006127900277587,5199.028166507585,5357.272075531707,5618.090601557264
3.111087833237312,5679.82391224684,5865.825857661584,6136.777143862709
3.1215628764468653,6130.198892898116,6291.966698813185,6682.687278603279
3.1320379196564185,6555.556195445113,6809.425324961228,7174.563049184695
3.142512962865972,7024.737025552532,7253.881387036876,7634.1320968609125
3.152988006075525,7476.493451429636,7713.221416464248,8103.179822381537
3.1634630492850784,7961.536701095713,8171.411936253534,8644.428499739664
3.1739380924946317,8301.534523111664,8611.54769771537,9071.681149678163
3.184413135704185,8700.462739402,9014.786943068153,9538.764219280272
3.1948881789137378,9064.04032799961,9402.664596792838,9936.248032521331
3.205363222123291,9516.606280780848,9801.289349582921,10384.929012356952
3.2158382653328443,9903.39018928688,10226.227327900375,10787.03843840559
3.2263133085423976,10225.043912427265,10503.888014875643,11177.741807290602
3.236788351751951,10627.818563901317,10973.014421205125,11565.36695945337
3.247263394961504,10929.99568031269,11285.468244760716,11862.116481070661
3.2577384381710575,11222.11639169223,11599.736011174537,12222.396442734998
3.2682134813806107,11590.842956781587,11883.180763029332,12547.816732950496
3.278688524590164,11820.392664639872,12209.287209181633,12855.897680693017
3.2891635677997173,12096.770080589253,12518.149479156307,13184.523712035403
3.29963861100927,12385.971922635492,12714.199147244028,13435.196659758914
3.3101136542188234,12611.216924460923,13036.487073328894,13709.672088675432
3.3205886974283767,12804.879627767601,13267.337720858497,14006.519099710904
3.33106374063793,13081.585057758919,13455.949922028465,14210.567355563277
3.3415387838474833,13242.082874965872,13645.020082241002,14444.471332562609
3.3520138270570365,13431.199434232476,13831.530025210403,14626.343078588114
3.36248887026659,13589.458985454447,14005.466260063427,14802.85017692074
3.372963913476143,13749.239452378008,14187.775811928193,14940.93258958493
3.3834389566856964,13910.141792473403,14335.64373830817,15141.976036304082
3.3939139998952497,13993.530132547354,14444.374206850185,15267.46022680127
3.404389043104803,14129.931008674876,14571.026825581608,15349.32113966526
3.414864086314356,14172.059661546578,14636.4257156817,15478.8287752482
3.425339129523909,14279.419920805265,14681.257342452926,15506.837061559427
3.4358141727334623,14288.221097836558,14767.266097999336,15613.871281160782
3.4462892159430156,14331.656870770608,14785.73680067826,15651.515276178305
3.456764259152569,14377.272666101791,14806.969267156986,15633.05430864962
3.467239302362122,14410.157520336405,14852.775088307895,15671.900165281357
3.4777143455716755,14391.88210568051,14876.092450052254,15676.75088546608
3.4881893887812288,14334.700547906323,14796.330623651409,15644.128990180441
3.498664431990782,14308.225729557471,14739.850392106218,15615.55845064836
3.5091394752003353,14270.374607865768,14682.223097253956,15555.210445615114
3.519614518409888,14203.287927456522,14640.703905687302,15470.821044919297
3.5300895616194414,14074.3811186157,14588.095453697792,15370.156340830179
3.5405646048289947,13994.735843618246,14448.462774275848,15262.477191111098
3.551039648038548,13854.509445827076,14386.987468147438,15136.55204428608
3.5615146912481013,13779.115653669347,14187.8910459224,15016.971327763318
3.5719897344576546,13643.906759794165,14084.279301843628,14839.035668435437
3.582464777667208,13492.142686728013,13920.781026636827,14693.84511786441
3.592939820876761,13323.632217329325,13722.380760064781,14486.720106384844
3.6034148640863144,13126.252996055562,13536.558897626071,14310.997722099695
3.6138899072958677,12947.46644978695,13327.662367135163,14098.57865472146
3.624364950505421,12725.782461880302,13195.226404811516,13832.146301595232
3.634839993714974,12563.523347786935,12921.678514719968,13622.31915037084
3.645315036924527,12241.503312548857,12649.031333079742,13350.87297026812
3.6557900801340804,12030.54435756654,12378.041523160244,13081.186367010803
3.6662651233436336,11767.899062828455,12141.484046111114,12864.740357430313
3.676740166553187,11548.527757676251,11869.516856493196,12533.776007117309
3.68721520976274,11216.410765807195,11526.702705653108,12210.618538969673
3.6976902529722935,10969.081964901941,11294.84649529235,11903.383480878498
3.7081652961818468,10634.638331929018,10980.80908793554,11588.190081927372
3.7186403393914,10277.800052030198,10641.239676732634,11257.254691338316
3.7291153826009533,10016.385099942563,10313.426540054897,10859.62478383528
3.7395904258105066,9684.410499455076,9991.953337624276,10532.008676381203
3.7500654690200594,9334.779156224511,9639.712093957465,10151.96499026715
3.7605405122296127,8973.636292636178,9282.190731514364,9786.982341492288
3.771015555439166,8612.238679351869,8944.540890116978,9405.805429969756
3.7814905986487193,8264.948693873808,8532.007854063942,9042.589800339301
3.7919656418582726,7931.804627433899,8140.487468350224,8616.12339864965
3.802440685067826,7539.047630130045,7771.099030697261,8198.993120598658
3.812915728277379,7131.882972509683,7363.242128459606,7800.982888433518
3.8233907714869324,6778.855194210794,6966.059493572094,7344.933151612613
3.8338658146964857,6392.15269988486,6562.483171540666,6974.0821118836775
3.844340857906039,6005.348039411325,6147.964479107305,6497.583828931636
3.8548159011155922,5604.261929425081,5758.998956914187,6071.957670983167
3.865290944325145,5185.515275533237,5348.8540861573465,5652.701965110906
3.8757659875346984,4802.31231190424,4917.454534284844,5183.017832883089
3.8862410307442516,4371.215862079938,4497.316690553064,4792.937232522756
3.896716073953805,3976.4900895817177,4083.0893710668215,4307.114587789913
3.907191117163358,3557.2993178141214,3644.0046872275193,3843.699980792447
3.9176661603729115,3107.6376485343203,3207.1787742749384,3398.2278220339404
3.9281412035824648,2722.6181920551458,2845.1261904169564,2962.6435843083427
3.938616246792018,2307.336909474176,2312.976268358355,2535.495524917498
3.9490912900015713,1895.301009264891,1925.5780903619695,2032.1109477191203
3.9595663332111246,1455.472401654642,1513.5624000408973,1582.451664490888
3.9700413764206774,1054.1140757212975,1051.6341396362172,1143.050893617548
3.9805164196302307,599.0266730272066,643.4173986566329,661.687185949093
3.990991462839784,189.1700183529336,168.53964886088156,177.21677187234792
4.001466506049337,223.3709695982757,229.40045551381783,209.21008226315746
4.011941549258891,607.6409647472065,665.684702501765,665.6454974456643
4.022416592468444,1019.7733145796868,1071.2645664419988,1134.3940057617322
4.032891635677997,1422.109006570124,1457.6202615010695,1590.6409492317287
4.04336667888755,1842.0303889567767,1841.6535100130402,2037.98444402261
4.053841722097103,2250.273234968227,2314.011376573808,2407.6224437431474
4.064316765306657,2679.6511648293263,2681.9097168309386,2814.3480662573124
4.07479180851621,2992.650237358847,3109.103121135676,3257.900981217969
4.0852668517257635,3412.769069866469,3519.2446670407203,3702.4932169254903
4.095741894935316,3762.944018554522,3904.427758895506,4123.343610844933
4.10621693814487,4159.528783051022,4229.687985207377,4536.931915077029
4.116691981354423,4483.509900638243,4626.831197277032,4889.899943977253
4.127167024563977,4869.6436329344,4995.753656912949,5315.541042128461
4.1376420677735295,5214.758308546464,5315.128976024402,5723.353987130679
4.148117110983082,5537.153961349228,5690.539777958894,6045.262378000947
4.158592154192636,5887.38860867059,6065.671827760184,6410.195991076548
4.169067197402189,6240.585813682162,6423.696345000564,6796.078697610477
4.179542240611743,6540.445310422451,6740.685115432417,7116.805621687875
4.1900172838212955,6793.144582744584,7056.856985068632,7439.287430426509
4.200492327030849,7165.099752806343,7364.497553616167,7797.749204910058
4.210967370240402,7442.683836222162,7655.953407416943,8098.546637868115
4.221442413449956,7751.659164043302,7934.663699303551,8404.439562894895
4.231917456659509,7991.082867983255,8215.895971411364,8717.336564780808
4.242392499869062,8261.853325407386,8502.684317358866,9013.678802337412
4.252867543078615,8524.52673138716,8756.969403562287,9276.320262381156
4.263342586288168,8728.614161853375,9034.404688927392,9556.726407701766
4.273817629497722,8963.280499048984,9285.768299496665,9785.75708145404
4.2842926727072745,9212.53386937173,9512.264702894545,10082.005301558476
4.294767715916828,9373.836924728996,9717.22448679647,10217.555270910283
4.305242759126381,9607.445649262843,9924.778382889737,10477.801298310393
4.315717802335935,9803.658475600658,10148.942593540143,10635.104602169944
4.326192845545488,10007.543113949789,10285.004968060934,10850.330772196005
4.336667888755041,10157.75023204803,10461.817380773946,11036.164946349203
4.347142931964594,10313.092791592964,10613.39572735532,11192.517919221451
4.357617975174147,10445.934092376861,10771.87145175298,11340.187538588583
4.368093018383701,10529.148158834287,10891.754591142262,11453.38124512217
4.378568061593254,10684.472411446446,11047.44192180784,11637.954469762526
4.389043104802807,10811.711942017686,11106.0878157412,11696.839178663775
4.39951814801236,10870.417317497247,11201.778507967361,11858.101556477786
4.409993191221914,10948.537751283688,11255.269934309612,11947.798097950823
4.420468234431467,11010.488062385972,11372.055733705101,12025.174560335754
4.4309432776410205,11088.510774838918,11420.549953582255,12035.68366954814
4.441418320850573,11118.45495608541,11462.56885661834,12107.093403255698
4.451893364060127,11139.155444176216,11489.711531970337,12137.594255820542
4.46236840726968,11142.737126413957,11486.995294043769,12181.108326502588
4.472843450479233,11128.47874855921,11568.98526743812,12156.676315198796
4.483318493688786,11171.94826564793,11502.60710159645,12128.261667701368
4.493793536898339,11133.15034301503,11528.238971570006,12105.732046112695
4.504268580107893,11139.357314397681,11477.46250879952,12146.41751822176
4.514743623317446,11080.723570528806,11438.258554723836,12045.012821488459
4.5252186665269996,11011.610291192843,11375.55834849868,11988.170065512542
4.535693709736552,10950.282223008046,11345.094233331207,11949.62673927685
4.546168752946106,10871.234906326174,11228.92451959404,11856.021381986275
4.556643796155659,10808.129236116285,11137.392328308624,11777.558366828422
4.567118839365213,10678.349373245606,11052.217688015777,11638.117090694768
4.5775938825747655,10621.157138170456,10913.073696032252,11516.548953285715
4.588068925784318,10445.005495499101,10794.571403029515,11437.668284135605
4.598543968993872,10353.687736857431,10642.97358890219,11287.678589077419
4.609019012203425,10197.005537965424,10469.20494296369,11069.54738212932
4.619494055412979,10063.249143976582,10359.219528971602,10951.70250412484
4.6299690986225315,9897.035614240262,10159.866293769865,10758.863174608687
4.640444141832085,9711.965769087321,9976.955384931174,10581.881168108823
4.650919185041638,9473.328991033422,9821.319435198151,10349.322528801731
4.661394228251192,9343.221798955266,9620.919653871137,10118.283459010225
4.671869271460745,9086.116704096323,9410.70366435759,9902.7383929013
4.682344314670298,8909.787399700324,9179.117733245996,9701.492611608686
4.692819357879851,8684.47291438296,8952.273710011554,9471.477844512134
4.703294401089404,8447.48516867239,8745.995518328395,9216.121458333393
4.713769444298958,8231.62149487415,8498.325093117564,8974.314222466337
4.724244487508511,7992.378411442074,8224.492768433607,8659.830005095777
4.734719530718064,7745.904344732455,7981.728852074292,8371.174332973347
4.745194573927617,7437.897152784541,7718.499081195337,8078.689789621218
4.755669617137171,7226.219099920732,7416.013462295277,7835.209200700083
4.766144660346724,6912.583193467488,7151.459427687777,7557.669014656584
4.776619703556277,6662.324996276086,6851.106316614168,7263.904311870645
4.78709474676583,6352.428755727706,6550.797578866825,6934.902792424835
4.797569789975384,6111.676257599677,6260.968894063332,6605.630712085569
4.808044833184937,5796.782225794047,5970.01868727557,6303.712264689797
4.81851987639449,5484.266034247412,5671.709482952159,5966.590256187747
4.828994919604043,5205.466540712454,5338.573194024823,5613.8055311160315
